0.00181818 -7.68988e-16
0.00545455 -4.51888e-15
0.00909091 1.03943e-15
 0.0127273 -9.89928e-16
 0.0163636 -6.29345e-15
      0.02 -5.03125e-15
 0.0236364 -2.52764e-15
 0.0272727 -1.64158e-15
 0.0309091 -1.175e-15
 0.0345455 -2.20377e-15
 0.0381818 -8.94343e-16
 0.0418182 1.0088e-15
 0.0454545 1.66082e-15
 0.0490909 1.25054e-15
 0.0527273 1.13647e-15
 0.0563636 5.0354e-16
      0.06 1.06983e-16
 0.0636364 -4.42321e-16
 0.0672727 -7.056e-16
 0.0709091 -1.18487e-15
 0.0745455 -1.50888e-15
 0.0781818 -1.9084e-15
 0.0818182 -1.88451e-15
 0.0854545 -2.01964e-15
 0.0890909 -2.05434e-15
 0.0927273 -2.44152e-15
 0.0963636 -2.59875e-15
       0.1 -2.69629e-15
  0.103636 -2.65389e-15
  0.107273 -2.80208e-15
  0.110909 -2.34509e-15
  0.114545 -1.89599e-15
  0.118182 -1.64999e-15
  0.121818 -1.70663e-15
  0.125455 -1.67143e-15
  0.129091 -1.70375e-15
  0.132727 -1.61138e-15
  0.136364 -1.59434e-15
      0.14 -1.47816e-15
  0.143636 -1.42844e-15
  0.147273 -1.32684e-15
  0.150909 -1.22313e-15
  0.154545 -1.06149e-15
  0.158182 -9.5196e-16
  0.161818 -7.63883e-16
  0.165455 -6.22893e-16
  0.169091 -5.17554e-16
  0.172727 -4.14416e-16
  0.176364 -1.6758e-16
      0.18 4.38055e-17
  0.183636 3.66661e-17
  0.187273 2.12894e-16
  0.190909 2.71932e-15
  0.194545 8.9154e-15
  0.198182 -2.95862e-16
  0.202594 -2.28302e-14
  0.207869 -3.84122e-14
  0.213323 -5.12196e-15
   0.21896 3.52551e-15
  0.224788 1.71631e-15
  0.230812 -3.37484e-16
   0.23704 -1.34327e-15
  0.243477 -1.5376e-15
  0.250132 -1.65159e-15
  0.257011 -1.23629e-15
  0.264122 -1.66313e-15
  0.271474 -5.23334e-15
  0.279073 -1.04563e-14
  0.286929 -1.43187e-14
  0.295049 -1.75653e-14
  0.303444 -1.83126e-14
  0.312122 -1.17749e-14
  0.321093 -3.03927e-15
  0.330366 2.04695e-15
  0.339952 4.58725e-15
  0.349862 3.63221e-15
  0.360105  1.997e-16
  0.370695 -3.15183e-15
  0.381642 -3.68728e-15
  0.392958 -2.30225e-15
  0.404655 -4.55999e-16
  0.416748 3.74656e-16
  0.429248 1.13268e-15
  0.442171 1.55821e-15
  0.455529 1.1398e-15
  0.469338 1.30543e-15
  0.483612 1.83077e-15
  0.498368 1.94129e-15
  0.513623 2.20442e-15
  0.529391 -1.09684e-16
  0.545692 -1.15809e-15
  0.562543 1.17075e-15
  0.579962 4.12167e-16
  0.597969 -8.65477e-16
  0.616583 -3.01048e-15
  0.635825 -1.61092e-14
  0.655717 -1.09465e-14
   0.67628 -5.08935e-15
  0.697536 -7.18211e-15
  0.719509 -4.90482e-15
  0.742224 2.72658e-14
  0.765705 -5.71483e-15
  0.789979 3.76643e-14
  0.815071 -6.24059e-15
   0.84101 2.63253e-14
  0.867824 1.43667e-13
  0.895542 2.66842e-13
  0.924196 -1.92599e-12
  0.953816 -1.12689e-12
  0.984436 1.57817e-12
