0.00181818 -8.65641e-16
0.00545455 -3.92248e-15
0.00909091 1.63207e-15
 0.0127273 -2.14699e-16
 0.0163636 -4.90981e-15
      0.02 -4.07683e-15
 0.0236364 -2.20631e-15
 0.0272727 -1.68537e-15
 0.0309091 -1.7595e-15
 0.0345455 -2.56191e-15
 0.0381818 -1.16991e-15
 0.0418182 3.30875e-16
 0.0454545 8.34823e-16
 0.0490909 5.5853e-16
 0.0527273 4.69933e-16
 0.0563636 -4.87281e-17
      0.06 -3.9525e-16
 0.0636364 -8.32491e-16
 0.0672727 -8.5909e-16
 0.0709091 -9.54687e-16
 0.0745455 -7.72015e-16
 0.0781818 -1.0484e-15
 0.0818182 -1.32654e-15
 0.0854545 -1.58657e-15
 0.0890909 -1.61264e-15
 0.0927273 -1.75581e-15
 0.0963636 -1.74181e-15
       0.1 -1.85422e-15
  0.103636 -1.85538e-15
  0.107273 -2.11475e-15
  0.110909 -2.29523e-15
  0.114545 -2.36926e-15
  0.118182 -1.84047e-15
  0.121818 -1.46152e-15
  0.125455 -1.28041e-15
  0.129091 -1.31082e-15
  0.132727 -1.25744e-15
  0.136364 -1.24576e-15
      0.14 -1.12901e-15
  0.143636 -1.08051e-15
  0.147273 -9.83071e-16
  0.150909 -8.87187e-16
  0.154545 -7.75276e-16
  0.158182 -6.72133e-16
  0.161818 -4.41695e-16
  0.165455 -2.83941e-16
  0.169091 -1.56483e-16
  0.172727 -4.81003e-17
  0.176364 1.64283e-16
      0.18 3.83856e-16
  0.183636 4.68943e-16
  0.187273 5.60216e-16
  0.190909 2.2671e-15
  0.194545 7.45042e-15
  0.198182 -1.40067e-16
  0.202594 -2.28386e-14
  0.207869 -3.43669e-14
  0.213323 -4.16508e-15
   0.21896 3.68302e-15
  0.224788 2.01752e-15
  0.230812 5.58157e-17
   0.23704 -1.13663e-15
  0.243477 -1.79264e-15
  0.250132 -2.28429e-15
  0.257011 -1.73726e-15
  0.264122 -7.60348e-16
  0.271474 -1.78165e-15
  0.279073 -6.54062e-15
  0.286929 -1.24883e-14
  0.295049 -1.68802e-14
  0.303444 -2.02388e-14
  0.312122 -1.65246e-14
  0.321093 -9.52042e-15
  0.330366 -5.14709e-15
  0.339952 2.33174e-16
  0.349862 2.90608e-15
  0.360105 1.03852e-15
  0.370695 -2.63233e-15
  0.381642 -3.98643e-15
  0.392958 -3.09111e-15
  0.404655 -5.17573e-16
  0.416748 1.38969e-15
  0.429248 2.70401e-15
  0.442171 2.97751e-15
  0.455529 2.1208e-15
  0.469338 2.06268e-15
  0.483612  2.476e-15
  0.498368 2.81532e-15
  0.513623 3.44167e-15
  0.529391 1.27719e-15
  0.545692 3.60752e-16
  0.562543 2.41551e-15
  0.579962 3.50207e-16
  0.597969 -1.38623e-15
  0.616583 -1.86332e-15
  0.635825 -1.20153e-14
  0.655717 -4.4309e-15
   0.67628 1.76212e-15
  0.697536 2.15376e-15
  0.719509 1.91482e-15
  0.742224 2.2548e-14
  0.765705 4.9853e-16
  0.789979 2.77139e-14
  0.815071 -2.99616e-15
   0.84101 1.14729e-14
  0.867824 1.73948e-13
  0.895542 2.78176e-13
  0.924196 -1.81197e-12
  0.953816 -8.96028e-13
  0.984436 1.26068e-12
