0.00181818 -8.9306e-16
0.00545455 -3.71081e-15
0.00909091 1.41375e-15
 0.0127273 2.07176e-16
 0.0163636 -3.92574e-15
      0.02 -3.39385e-15
 0.0236364 -1.93246e-15
 0.0272727 -1.51589e-15
 0.0309091 -1.59788e-15
 0.0345455 -2.36984e-15
 0.0381818 -1.32977e-15
 0.0418182 -1.04908e-16
 0.0454545 3.00897e-16
 0.0490909  9.331e-17
 0.0527273 4.8796e-17
 0.0563636 -3.83883e-16
      0.06 -6.95706e-16
 0.0636364 -1.01024e-15
 0.0672727 -9.77616e-16
 0.0709091 -9.555e-16
 0.0745455 -6.50362e-16
 0.0781818 -8.5352e-16
 0.0818182 -1.19198e-15
 0.0854545 -1.53665e-15
 0.0890909 -1.56354e-15
 0.0927273 -1.57295e-15
 0.0963636 -1.45301e-15
       0.1 -1.59849e-15
  0.103636 -1.6465e-15
  0.107273 -1.82374e-15
  0.110909 -1.97799e-15
  0.114545 -2.21012e-15
  0.118182 -2.13466e-15
  0.121818 -1.76841e-15
  0.125455 -1.34408e-15
  0.129091 -1.29251e-15
  0.132727 -1.24637e-15
  0.136364 -1.17415e-15
      0.14 -1.07301e-15
  0.143636 -1.02371e-15
  0.147273 -9.34667e-16
  0.150909 -8.25668e-16
  0.154545 -7.58599e-16
  0.158182 -6.5928e-16
  0.161818 -4.00912e-16
  0.165455 -2.10585e-16
  0.169091 -8.26101e-17
  0.172727 2.92288e-17
  0.176364 2.34488e-16
      0.18 4.91178e-16
  0.183636 6.84554e-16
  0.187273 7.37808e-16
  0.190909 1.50766e-15
  0.194545 5.02289e-15
  0.198182 5.13993e-16
  0.202594 -1.78504e-14
  0.207869 -2.84073e-14
  0.213323 -3.10414e-15
   0.21896 3.80336e-15
  0.224788 2.21513e-15
  0.230812 3.93431e-16
   0.23704 -6.96125e-16
  0.243477 -1.44202e-15
  0.250132 -2.12856e-15
  0.257011 -1.83476e-15
  0.264122 -6.99344e-16
  0.271474 -4.91859e-16
  0.279073 -3.73362e-15
  0.286929 -1.00104e-14
  0.295049 -1.47101e-14
  0.303444 -1.8454e-14
  0.312122 -1.96099e-14
  0.321093 -1.80881e-14
  0.330366 -1.54782e-14
  0.339952 -9.46814e-15
  0.349862 -3.92389e-15
  0.360105 -2.53446e-15
  0.370695 -3.88023e-15
  0.381642 -4.16033e-15
  0.392958 -3.004e-15
  0.404655 -4.01275e-16
  0.416748 1.9003e-15
  0.429248 3.60938e-15
  0.442171 3.84477e-15
  0.455529 2.84019e-15
  0.469338 3.00573e-15
  0.483612 3.27395e-15
  0.498368 2.97661e-15
  0.513623 3.25426e-15
  0.529391 1.28422e-15
  0.545692 5.39394e-16
  0.562543 2.62935e-15
  0.579962 6.31175e-16
  0.597969 -3.45615e-16
  0.616583 1.17355e-16
  0.635825 -9.15632e-15
  0.655717 -1.01988e-15
   0.67628 4.90961e-15
  0.697536 5.64962e-15
  0.719509 3.48685e-15
  0.742224 1.86556e-14
  0.765705 2.53633e-15
  0.789979 2.17112e-14
  0.815071 6.04873e-15
   0.84101 -4.41624e-16
  0.867824 1.98835e-13
  0.895542 2.87777e-13
  0.924196 -1.68421e-12
  0.953816 -7.607e-13
  0.984436  1.043e-12
