0.00181818 -7.14357e-16
0.00545455 -2.52122e-15
0.00909091 7.20939e-16
 0.0127273 6.0158e-16
 0.0163636 -1.89386e-15
      0.02 -1.75589e-15
 0.0236364 -1.1517e-15
 0.0272727 -9.8123e-16
 0.0309091 -9.83927e-16
 0.0345455 -1.32548e-15
 0.0381818 -1.04055e-15
 0.0418182 -4.21648e-16
 0.0454545 -2.87549e-16
 0.0490909 -3.26178e-16
 0.0527273 -4.01352e-16
 0.0563636 -6.43845e-16
      0.06 -9.2044e-16
 0.0636364 -1.04271e-15
 0.0672727 -1.01185e-15
 0.0709091 -8.01727e-16
 0.0745455 -4.46005e-16
 0.0781818 -4.64025e-16
 0.0818182 -9.61579e-16
 0.0854545 -1.23377e-15
 0.0890909 -1.33368e-15
 0.0927273 -1.13528e-15
 0.0963636 -1.02327e-15
       0.1 -1.08123e-15
  0.103636 -1.26922e-15
  0.107273 -1.24541e-15
  0.110909 -1.36595e-15
  0.114545 -1.38444e-15
  0.118182 -1.59118e-15
  0.121818 -1.64399e-15
  0.125455 -1.82645e-15
  0.129091 -1.65915e-15
  0.132727 -1.54487e-15
  0.136364 -1.32476e-15
      0.14 -1.32802e-15
  0.143636  -1.16e-15
  0.147273 -1.18825e-15
  0.150909 -9.94641e-16
  0.154545 -1.09904e-15
  0.158182 -9.6014e-16
  0.161818 -7.4433e-16
  0.165455 -4.89027e-16
  0.169091 -4.23806e-16
  0.172727 -2.62673e-16
  0.176364 -1.16867e-16
      0.18 5.84351e-17
  0.183636 -1.4667e-16
  0.187273 1.38963e-16
  0.190909 2.9707e-15
  0.194545 9.12514e-15
  0.198182 -2.60085e-15
  0.202594 -1.97255e-14
  0.207869 -2.14824e-14
  0.213323 -1.18082e-15
   0.21896 2.98613e-15
  0.224788 1.39987e-15
  0.230812 2.14584e-16
   0.23704 -1.72704e-16
  0.243477 -3.79557e-16
  0.250132 -6.57836e-16
  0.257011 -5.07592e-16
  0.264122 2.31686e-16
  0.271474 1.05141e-15
  0.279073 9.81521e-16
  0.286929 -1.82765e-15
  0.295049 -6.17256e-15
  0.303444 -6.44646e-15
  0.312122 -9.21951e-15
  0.321093 -1.78777e-14
  0.330366 -1.99066e-14
  0.339952 -1.74023e-14
  0.349862 -1.29983e-14
  0.360105 -8.18498e-15
  0.370695 -4.62724e-15
  0.381642 -2.66155e-15
  0.392958 -1.02148e-15
  0.404655 1.93099e-16
  0.416748 1.01627e-15
  0.429248 2.34699e-15
  0.442171 2.9397e-15
  0.455529 7.56988e-16
  0.469338 7.20199e-16
  0.483612 2.49746e-15
  0.498368 1.52519e-15
  0.513623 8.55248e-16
  0.529391 7.13833e-18
  0.545692 -5.76884e-16
  0.562543 2.98914e-15
  0.579962 2.0364e-15
  0.597969 1.80256e-15
  0.616583 3.02184e-15
  0.635825 -4.10037e-15
  0.655717 2.74845e-15
   0.67628 6.35255e-15
  0.697536 6.88217e-15
  0.719509 4.30934e-15
  0.742224 1.08882e-14
  0.765705 1.86823e-15
  0.789979 1.16493e-14
  0.815071 2.97346e-14
   0.84101 -5.06942e-14
  0.867824 2.01783e-13
  0.895542 2.65453e-13
  0.924196 -1.17473e-12
  0.953816 -4.2505e-13
  0.984436 5.52784e-13
