0.00181818 -8.84994e-16
0.00545455 -3.4913e-15
0.00909091 1.2006e-15
 0.0127273 4.33585e-16
 0.0163636 -3.24941e-15
      0.02 -2.87783e-15
 0.0236364 -1.68572e-15
 0.0272727 -1.36297e-15
 0.0309091 -1.48061e-15
 0.0345455 -2.12269e-15
 0.0381818 -1.29828e-15
 0.0418182 -2.79283e-16
 0.0454545 4.75467e-17
 0.0490909 -1.16337e-16
 0.0527273 -1.34437e-16
 0.0563636 -5.49157e-16
      0.06 -8.66767e-16
 0.0636364 -1.10715e-15
 0.0672727 -1.06527e-15
 0.0709091 -9.77585e-16
 0.0745455 -6.10046e-16
 0.0781818 -7.26153e-16
 0.0818182 -1.17967e-15
 0.0854545 -1.51433e-15
 0.0890909 -1.55444e-15
 0.0927273 -1.4678e-15
 0.0963636 -1.34874e-15
       0.1 -1.45328e-15
  0.103636 -1.52866e-15
  0.107273 -1.66693e-15
  0.110909 -1.79501e-15
  0.114545 -1.97361e-15
  0.118182 -2.13373e-15
  0.121818 -1.9559e-15
  0.125455 -1.53626e-15
  0.129091 -1.37644e-15
  0.132727 -1.30612e-15
  0.136364 -1.23211e-15
      0.14 -1.1292e-15
  0.143636 -1.03726e-15
  0.147273 -9.76031e-16
  0.150909 -8.64909e-16
  0.154545 -8.35457e-16
  0.158182 -7.23975e-16
  0.161818 -4.61156e-16
  0.165455 -2.53824e-16
  0.169091 -1.26398e-16
  0.172727 5.9028e-18
  0.176364 2.06321e-16
      0.18 4.57774e-16
  0.183636 5.86149e-16
  0.187273 6.45465e-16
  0.190909 1.52401e-15
  0.194545 5.06036e-15
  0.198182 7.35747e-16
  0.202594 -1.18436e-14
  0.207869 -2.12498e-14
  0.213323 -2.50519e-15
   0.21896 3.41664e-15
  0.224788 2.18805e-15
  0.230812 5.70318e-16
   0.23704 -3.60662e-16
  0.243477 -1.02181e-15
  0.250132 -1.71094e-15
  0.257011 -1.59191e-15
  0.264122 -5.847e-16
  0.271474 4.4332e-17
  0.279073 -2.03275e-15
  0.286929 -7.49787e-15
  0.295049 -1.25199e-14
  0.303444 -1.58332e-14
  0.312122 -1.91578e-14
  0.321093 -2.25307e-14
  0.330366 -2.17928e-14
  0.339952 -1.64221e-14
  0.349862 -1.01083e-14
  0.360105 -6.1946e-15
  0.370695 -5.15328e-15
  0.381642 -4.35411e-15
  0.392958 -2.79346e-15
  0.404655 -3.00636e-16
  0.416748 1.90953e-15
  0.429248 3.83999e-15
  0.442171 4.08948e-15
  0.455529 2.84051e-15
  0.469338 3.45185e-15
  0.483612 3.93585e-15
  0.498368 2.99589e-15
  0.513623 2.97937e-15
  0.529391 1.16941e-15
  0.545692 4.21208e-16
  0.562543 2.73181e-15
  0.579962 8.68709e-16
  0.597969 2.48927e-16
  0.616583 1.25362e-15
  0.635825 -7.32805e-15
  0.655717 7.68353e-16
   0.67628 6.08804e-15
  0.697536 6.69717e-15
  0.719509 3.85641e-15
  0.742224 1.6017e-14
  0.765705 3.13498e-15
  0.789979 1.81794e-14
  0.815071 1.51951e-14
   0.84101 -2.02508e-14
  0.867824 2.02159e-13
  0.895542 2.92885e-13
  0.924196 -1.55918e-12
  0.953816 -6.56506e-13
  0.984436 8.8442e-13
