0.00181818 -5.72053e-16
0.00545455 -4.71723e-15
0.00909091 9.89593e-16
 0.0127273 -1.85434e-15
 0.0163636 -8.56531e-15
      0.02 -6.52463e-15
 0.0236364 -2.95347e-15
 0.0272727 -1.45556e-15
 0.0309091 -5.36387e-16
 0.0345455 -1.50492e-15
 0.0381818 -1.7128e-16
 0.0418182 1.93046e-15
 0.0454545 2.64227e-15
 0.0490909 2.31984e-15
 0.0527273 2.16366e-15
 0.0563636 1.44748e-15
      0.06 7.17781e-16
 0.0636364 -1.876e-16
 0.0672727 -9.2837e-16
 0.0709091 -2.03644e-15
 0.0745455 -3.09359e-15
 0.0781818 -3.58911e-15
 0.0818182 -3.12874e-15
 0.0854545 -3.05734e-15
 0.0890909 -3.16837e-15
 0.0927273 -3.88964e-15
 0.0963636 -4.11839e-15
       0.1 -3.68468e-15
  0.103636 -3.26088e-15
  0.107273 -3.23726e-15
  0.110909 -3.12712e-15
  0.114545 -3.13133e-15
  0.118182 -3.02968e-15
  0.121818 -2.98678e-15
  0.125455 -2.84436e-15
  0.129091 -2.74982e-15
  0.132727 -2.60142e-15
  0.136364 -2.51947e-15
      0.14 -2.3803e-15
  0.143636 -2.28591e-15
  0.147273 -2.16372e-15
  0.150909 -2.03788e-15
  0.154545 -1.83332e-15
  0.158182 -1.67641e-15
  0.161818 -1.44078e-15
  0.165455 -1.22488e-15
  0.169091 -1.00883e-15
  0.172727 -8.01389e-16
  0.176364 -4.1428e-16
      0.18 -4.48212e-17
  0.183636 1.1444e-16
  0.187273 3.89613e-16
  0.190909 2.4957e-15
  0.194545 7.17811e-15
  0.198182 -6.66133e-16
  0.202594 -1.39757e-14
  0.207869 -3.11103e-14
  0.213323 -4.28986e-15
   0.21896 2.88163e-15
  0.224788 1.47707e-15
  0.230812 -2.28978e-16
   0.23704 -8.35902e-16
  0.243477 -6.19147e-16
  0.250132 -1.08347e-15
  0.257011 -2.76141e-15
  0.264122 -5.45333e-15
  0.271474 -7.85944e-15
  0.279073 -9.25084e-15
  0.286929 -1.01997e-14
  0.295049 -9.64517e-15
  0.303444 -7.00667e-15
  0.312122 -4.07484e-15
  0.321093 -7.59856e-16
  0.330366 2.25578e-15
  0.339952 2.42945e-15
  0.349862 -4.82527e-16
  0.360105 -2.83018e-15
  0.370695 -4.20032e-15
  0.381642 -4.15245e-15
  0.392958 -2.77196e-15
  0.404655 -1.78242e-15
  0.416748 -1.61542e-15
  0.429248 -9.96185e-16
  0.442171 -2.28347e-16
  0.455529 -2.2002e-16
  0.469338 -5.8005e-16
  0.483612 -1.11525e-15
  0.498368 -1.81549e-15
  0.513623 -1.71071e-15
  0.529391 -3.91269e-15
  0.545692 -5.2451e-15
  0.562543 -2.91319e-15
  0.579962 -1.60151e-15
  0.597969 -1.09648e-15
  0.616583 -2.65643e-15
  0.635825 -1.5933e-14
  0.655717 -1.34981e-14
   0.67628 -8.83196e-15
  0.697536 -1.94715e-14
  0.719509 -2.21971e-14
  0.742224 2.26083e-14
  0.765705 -3.44534e-14
  0.789979 4.15046e-14
  0.815071 1.4952e-14
   0.84101 5.57372e-14
  0.867824 4.23356e-14
  0.895542 1.3657e-13
  0.924196 -1.83689e-12
  0.953816 -1.57071e-12
  0.984436 2.28787e-12
