0.00181818 -8.494e-16
0.00545455 -3.23184e-15
0.00909091 1.02353e-15
 0.0127273 5.27305e-16
 0.0163636 -2.76039e-15
      0.02 -2.48698e-15
 0.0236364 -1.50368e-15
 0.0272727 -1.25384e-15
 0.0309091 -1.3366e-15
 0.0345455 -1.85343e-15
 0.0381818 -1.24125e-15
 0.0418182 -3.74983e-16
 0.0454545 -1.25202e-16
 0.0490909 -2.29003e-16
 0.0527273 -2.66027e-16
 0.0563636 -6.24403e-16
      0.06 -9.35631e-16
 0.0636364 -1.11365e-15
 0.0672727 -1.08168e-15
 0.0709091 -9.34787e-16
 0.0745455 -5.65299e-16
 0.0781818 -6.26175e-16
 0.0818182 -1.12249e-15
 0.0854545 -1.45332e-15
 0.0890909 -1.50934e-15
 0.0927273 -1.39391e-15
 0.0963636 -1.25508e-15
       0.1 -1.36359e-15
  0.103636 -1.47847e-15
  0.107273 -1.52698e-15
  0.110909 -1.63995e-15
  0.114545 -1.78324e-15
  0.118182 -1.9891e-15
  0.121818 -2.05923e-15
  0.125455 -1.80227e-15
  0.129091 -1.483e-15
  0.132727 -1.38745e-15
  0.136364 -1.27179e-15
      0.14 -1.2066e-15
  0.143636 -1.0887e-15
  0.147273 -1.03288e-15
  0.150909 -9.13091e-16
  0.154545 -9.24719e-16
  0.158182 -8.08527e-16
  0.161818 -5.43406e-16
  0.165455 -3.21414e-16
  0.169091 -2.09129e-16
  0.172727 -7.13407e-17
  0.176364 1.30669e-16
      0.18 3.63689e-16
  0.183636 3.95449e-16
  0.187273 4.98744e-16
  0.190909 1.88752e-15
  0.194545 6.17218e-15
  0.198182 3.66109e-16
  0.202594 -1.19159e-14
  0.207869 -1.87006e-14
  0.213323 -1.92989e-15
   0.21896 2.91484e-15
  0.224788 1.88721e-15
  0.230812 6.03985e-16
   0.23704 -1.61356e-16
  0.243477 -7.07241e-16
  0.250132 -1.30541e-15
  0.257011 -1.2493e-15
  0.264122 -3.73988e-16
  0.271474 3.8648e-16
  0.279073 -8.94729e-16
  0.286929 -5.49619e-15
  0.295049 -1.06683e-14
  0.303444 -1.31535e-14
  0.312122 -1.70388e-14
  0.321093 -2.36407e-14
  0.330366 -2.42469e-14
  0.339952 -1.96915e-14
  0.349862 -1.35225e-14
  0.360105 -8.44498e-15
  0.370695 -5.92927e-15
  0.381642 -4.42657e-15
  0.392958 -2.52653e-15
  0.404655 -1.98835e-16
  0.416748 1.68974e-15
  0.429248 3.67287e-15
  0.442171 4.05164e-15
  0.455529 2.50284e-15
  0.469338 3.23626e-15
  0.483612 4.02087e-15
  0.498368 2.7117e-15
  0.513623 2.69567e-15
  0.529391 1.17423e-15
  0.545692 2.38471e-16
  0.562543 2.86991e-15
  0.579962 1.25563e-15
  0.597969 8.02617e-16
  0.616583 1.98345e-15
  0.635825 -6.15472e-15
  0.655717 1.67491e-15
   0.67628 6.43507e-15
  0.697536 6.98627e-15
  0.719509 4.06638e-15
  0.742224 1.4298e-14
  0.765705 3.1413e-15
  0.789979 1.59354e-14
  0.815071 2.29162e-14
   0.84101 -3.0159e-14
  0.867824 2.0545e-13
  0.895542 2.89555e-13
  0.924196 -1.4445e-12
  0.953816 -5.7758e-13
  0.984436 7.68531e-13
