0.00181818 -7.56384e-16
0.00545455 -2.72843e-15
0.00909091 7.96591e-16
 0.0127273 5.96217e-16
 0.0163636 -2.11773e-15
      0.02 -1.9412e-15
 0.0236364 -1.24964e-15
 0.0272727 -1.06824e-15
 0.0309091 -1.08444e-15
 0.0345455 -1.46818e-15
 0.0381818 -1.10045e-15
 0.0418182 -4.15076e-16
 0.0454545 -2.49287e-16
 0.0490909 -3.18883e-16
 0.0527273 -3.84285e-16
 0.0563636 -6.30511e-16
      0.06 -9.50138e-16
 0.0636364 -1.06629e-15
 0.0672727 -1.05817e-15
 0.0709091 -8.49829e-16
 0.0745455 -4.96373e-16
 0.0781818 -5.09528e-16
 0.0818182 -1.00922e-15
 0.0854545 -1.31128e-15
 0.0890909 -1.40595e-15
 0.0927273 -1.22898e-15
 0.0963636 -1.10808e-15
       0.1 -1.18152e-15
  0.103636 -1.32325e-15
  0.107273 -1.33605e-15
  0.110909 -1.44632e-15
  0.114545 -1.5048e-15
  0.118182 -1.70857e-15
  0.121818 -1.78439e-15
  0.125455 -1.8358e-15
  0.129091 -1.6171e-15
  0.132727 -1.49315e-15
  0.136364 -1.31253e-15
      0.14 -1.30304e-15
  0.143636 -1.16035e-15
  0.147273 -1.14191e-15
  0.150909 -9.7565e-16
  0.154545 -1.06478e-15
  0.158182 -9.39678e-16
  0.161818 -6.95017e-16
  0.165455 -4.44673e-16
  0.169091 -3.65148e-16
  0.172727 -2.08227e-16
  0.176364 -4.59233e-17
      0.18 1.53613e-16
  0.183636 1.36197e-17
  0.187273 2.38733e-16
  0.190909 2.66633e-15
  0.194545 8.35912e-15
  0.198182 -1.50233e-15
  0.202594 -1.70822e-14
  0.207869 -2.0005e-14
  0.213323 -1.35481e-15
   0.21896 2.79517e-15
  0.224788 1.40205e-15
  0.230812 3.13644e-16
   0.23704 -9.47531e-17
  0.243477 -4.08604e-16
  0.250132 -7.85278e-16
  0.257011 -6.85039e-16
  0.264122 7.01669e-17
  0.271474 8.89046e-16
  0.279073 5.46611e-16
  0.286929 -2.84409e-15
  0.295049 -7.74118e-15
  0.303444 -8.5614e-15
  0.312122 -1.16357e-14
  0.321093 -2.03773e-14
  0.330366 -2.22777e-14
  0.339952 -1.90871e-14
  0.349862 -1.40325e-14
  0.360105 -8.86306e-15
  0.370695 -5.39505e-15
  0.381642 -3.42452e-15
  0.392958 -1.56044e-15
  0.404655 7.26852e-17
  0.416748 1.23389e-15
  0.429248 2.81972e-15
  0.442171 3.39632e-15
  0.455529 1.4252e-15
  0.469338 1.60727e-15
  0.483612 3.09852e-15
  0.498368 1.99688e-15
  0.513623 1.52934e-15
  0.529391 4.72108e-16
  0.545692 -2.95319e-16
  0.562543 3.03196e-15
  0.579962 1.86614e-15
  0.597969 1.55973e-15
  0.616583 2.79836e-15
  0.635825 -4.64112e-15
  0.655717 2.51658e-15
   0.67628 6.4306e-15
  0.697536 6.96346e-15
  0.719509 4.28546e-15
  0.742224 1.18952e-14
  0.765705 2.36224e-15
  0.789979 1.27846e-14
  0.815071 2.94507e-14
   0.84101 -4.45772e-14
  0.867824 2.04075e-13
  0.895542 2.74797e-13
  0.924196 -1.25405e-12
  0.953816 -4.66122e-13
  0.984436 6.09967e-13
