0.00181818 -8.02763e-16
0.00545455 -2.96813e-15
0.00909091 8.94252e-16
 0.0127273 5.76758e-16
 0.0163636 -2.39743e-15
      0.02 -2.17826e-15
 0.0236364 -1.36213e-15
 0.0272727 -1.16001e-15
 0.0309091 -1.20251e-15
 0.0345455 -1.64067e-15
 0.0381818 -1.17311e-15
 0.0418182 -4.07382e-16
 0.0454545 -2.00229e-16
 0.0490909 -2.9448e-16
 0.0527273 -3.26197e-16
 0.0563636 -6.4162e-16
      0.06 -9.38927e-16
 0.0636364 -1.09584e-15
 0.0672727 -1.08443e-15
 0.0709091 -8.99291e-16
 0.0745455 -5.33412e-16
 0.0781818 -5.61507e-16
 0.0818182 -1.05309e-15
 0.0854545 -1.36784e-15
 0.0890909 -1.46517e-15
 0.0927273 -1.2961e-15
 0.0963636 -1.14819e-15
       0.1 -1.25359e-15
  0.103636 -1.37528e-15
  0.107273 -1.43948e-15
  0.110909 -1.53973e-15
  0.114545 -1.62722e-15
  0.118182 -1.82973e-15
  0.121818 -1.92377e-15
  0.125455 -1.83979e-15
  0.129091 -1.55007e-15
  0.132727 -1.45336e-15
  0.136364 -1.32014e-15
      0.14 -1.26491e-15
  0.143636 -1.13372e-15
  0.147273 -1.09962e-15
  0.150909 -9.51643e-16
  0.154545 -1.0045e-15
  0.158182 -8.81125e-16
  0.161818 -6.27548e-16
  0.165455 -3.88825e-16
  0.169091 -2.88075e-16
  0.172727 -1.41393e-16
  0.176364 4.73558e-17
      0.18 2.54344e-16
  0.183636 1.95363e-16
  0.187273 3.61035e-16
  0.190909 2.29507e-15
  0.194545 7.35683e-15
  0.198182 -4.63462e-16
  0.202594 -1.42474e-14
  0.207869 -1.88025e-14
  0.213323 -1.54886e-15
   0.21896 2.75197e-15
  0.224788 1.60023e-15
  0.230812 4.90979e-16
   0.23704 -7.77042e-17
  0.243477 -5.10048e-16
  0.250132 -9.93852e-16
  0.257011 -9.35664e-16
  0.264122 -1.39661e-16
  0.271474 6.67951e-16
  0.279073 -5.76824e-17
  0.286929 -4.05131e-15
  0.295049 -9.24112e-15
  0.303444 -1.0801e-14
  0.312122 -1.42921e-14
  0.321093 -2.25165e-14
  0.330366 -2.40476e-14
  0.339952 -2.01399e-14
  0.349862 -1.4441e-14
  0.360105 -9.09688e-15
  0.370695 -5.90779e-15
  0.381642 -4.08699e-15
  0.392958 -2.10304e-15
  0.404655 -4.76905e-17
  0.416748 1.47936e-15
  0.429248 3.28641e-15
  0.442171 3.77551e-15
  0.455529 2.03316e-15
  0.469338 2.51654e-15
  0.483612 3.63185e-15
  0.498368 2.38127e-15
  0.513623 2.19162e-15
  0.529391 9.13816e-16
  0.545692 -1.6879e-17
  0.562543 3.00362e-15
  0.579962 1.61808e-15
  0.597969 1.2387e-15
  0.616583 2.46861e-15
  0.635825 -5.30231e-15
  0.655717 2.18633e-15
   0.67628 6.47593e-15
  0.697536 7.01195e-15
  0.719509 4.19967e-15
  0.742224 1.3013e-14
  0.765705 2.81446e-15
  0.789979 1.42193e-14
  0.815071 2.75606e-14
   0.84101 -3.77994e-14
  0.867824 2.05527e-13
  0.895542 2.8316e-13
  0.924196 -1.3434e-12
  0.953816 -5.15872e-13
  0.984436 6.80161e-13
