0.00181818 -3.97733e-16
0.00545455 -5.57517e-16
0.00909091 9.64169e-15
 0.0127273 2.85338e-15
 0.0163636 -1.10715e-14
      0.02 -9.78659e-15
 0.0236364 -5.30577e-15
 0.0272727 -2.64075e-15
 0.0309091 -2.07888e-15
 0.0345455 -3.46654e-15
 0.0381818 -2.43853e-15
 0.0418182 2.24233e-16
 0.0454545 5.35047e-16
 0.0490909 2.54807e-16
 0.0527273 -1.2646e-16
 0.0563636 -5.1678e-16
      0.06 -1.2219e-15
 0.0636364 -1.35807e-15
 0.0672727 -1.74123e-15
 0.0709091 -2.28504e-15
 0.0745455 -2.77078e-15
 0.0781818 -2.82713e-15
 0.0818182 -2.88765e-15
 0.0854545 -2.80992e-15
 0.0890909 -2.79222e-15
 0.0927273 -2.69064e-15
 0.0963636 -2.60823e-15
       0.1 -2.4918e-15
  0.103636 -2.384e-15
  0.107273 -2.27066e-15
  0.110909 -2.15711e-15
  0.114545 -2.06019e-15
  0.118182 -1.9514e-15
  0.121818 -1.87503e-15
  0.125455 -1.77652e-15
  0.129091 -1.72089e-15
  0.132727 -1.63449e-15
  0.136364 -1.59886e-15
      0.14 -1.5209e-15
  0.143636 -1.50434e-15
  0.147273 -1.43363e-15
  0.150909 -1.42854e-15
  0.154545 -1.36182e-15
  0.158182 -1.36149e-15
  0.161818 -1.2966e-15
  0.165455 -1.29507e-15
  0.169091 -1.22206e-15
  0.172727 -1.20864e-15
  0.176364 -1.12124e-15
      0.18 -1.0761e-15
  0.183636 -8.57333e-16
  0.187273 -7.96192e-16
  0.190909 -1.46382e-15
  0.194545 -3.88391e-15
  0.198182 -4.84725e-15
  0.202594 6.63029e-15
  0.207869 2.32251e-15
  0.213323 8.55412e-17
   0.21896 -8.4381e-17
  0.224788 1.16525e-16
  0.230812 7.31772e-17
   0.23704 2.13344e-16
  0.243477 3.91317e-16
  0.250132 4.8551e-16
  0.257011 6.50354e-16
  0.264122 9.59645e-16
  0.271474 9.3132e-16
  0.279073 1.09542e-15
  0.286929 9.76174e-16
  0.295049 5.88524e-16
  0.303444 4.85982e-16
  0.312122 6.75195e-17
  0.321093 -7.10101e-16
  0.330366 -7.60026e-16
  0.339952 -1.94534e-16
  0.349862 -1.65137e-16
  0.360105 -4.91839e-16
  0.370695 -8.92167e-16
  0.381642 -1.24419e-15
  0.392958 -8.10025e-16
  0.404655 -3.17287e-16
  0.416748 -1.51494e-16
  0.429248 1.41613e-16
  0.442171 2.59205e-16
  0.455529 -3.66832e-16
  0.469338 -5.8821e-16
  0.483612 -1.06724e-15
  0.498368 -1.15322e-15
  0.513623 -9.07613e-16
  0.529391 -1.56192e-15
  0.545692 -1.73423e-15
  0.562543 -8.61049e-17
  0.579962 -1.5491e-15
  0.597969 -1.46573e-15
  0.616583 1.05173e-15
  0.635825 -7.91233e-15
  0.655717 -1.23437e-14
   0.67628 7.24262e-16
  0.697536 -2.45181e-15
  0.719509 -2.63687e-14
  0.742224 1.95386e-14
  0.765705 4.29174e-15
  0.789979 -2.93866e-14
  0.815071 5.40048e-14
   0.84101 2.35454e-14
  0.867824 4.44693e-14
  0.895542 9.59641e-14
  0.924196 -1.01378e-12
  0.953816 -2.62675e-12
  0.984436 3.1843e-12
